#time[sec] output_ch0 output_ch1
0.000000000000000000e+00 3.877913173018041060e-01 3.394899076734654852e-01
1.000000000000000021e-08 3.946915186772810835e-01 3.477701493240378250e-01
2.000000000000000042e-08 4.015917200527580055e-01 3.588104715248009446e-01
3.000000000000000394e-08 4.181522033539026295e-01 3.629505923500871423e-01
4.000000000000000084e-08 4.264324450044749693e-01 3.781310353761364040e-01
4.999999999999999774e-08 4.305725658297611669e-01 3.850312367516133261e-01
6.000000000000000787e-08 4.457530088558103731e-01 3.974515992274718634e-01
7.000000000000000477e-08 4.526532102312873507e-01 4.098719617033302898e-01
8.000000000000000167e-08 4.664536129822411947e-01 4.126320422535210697e-01
8.999999999999999857e-08 4.774939351830043144e-01 4.236723644542841893e-01
9.999999999999999547e-08 4.871542171086721273e-01 4.347126866550473090e-01
1.100000000000000056e-07 4.940544184841489939e-01 4.498931296810965708e-01
1.200000000000000157e-07 5.078548212351029489e-01 4.540332505063827129e-01
1.299999999999999994e-07 5.188951434358660686e-01 4.636935324320504148e-01
1.400000000000000095e-07 5.244153045362476284e-01 4.705937338075274479e-01
1.499999999999999932e-07 5.368356670121060548e-01 4.816340560082905675e-01
1.600000000000000033e-07 5.464959489377737567e-01 4.899142976588629073e-01
1.700000000000000135e-07 5.561562308634415697e-01 4.995745795845305537e-01
1.799999999999999971e-07 5.658165127891091606e-01 5.092348615101982556e-01
1.900000000000000073e-07 5.809969558151584224e-01 5.216552239860567930e-01
1.999999999999999909e-07 5.906572377408262353e-01 5.313155059117244949e-01
2.100000000000000011e-07 5.989374793913985195e-01 5.368356670121060548e-01
2.200000000000000112e-07 6.058376807668754971e-01 5.492560294879644811e-01
2.299999999999999949e-07 6.154979626925431990e-01 5.589163114136322941e-01
2.400000000000000315e-07 6.279183251684017364e-01 5.685765933392999960e-01
2.499999999999999887e-07 6.320584459936878785e-01 5.782368752649676980e-01
2.599999999999999988e-07 6.458588487446417226e-01 5.878971571906353999e-01
2.700000000000000090e-07 6.582792112205001489e-01 5.975574391163031018e-01
2.800000000000000191e-07 6.693195334212632686e-01 6.044576404917800794e-01
2.900000000000000292e-07 6.720796139714541040e-01 6.182580432427339234e-01
2.999999999999999864e-07 6.886400972725987835e-01 6.292983654434970431e-01
3.099999999999999966e-07 7.010604597484572098e-01 6.348185265438786029e-01
3.200000000000000067e-07 7.107207416741249117e-01 6.444788084695463048e-01
3.300000000000000168e-07 7.190009833246973070e-01 6.527590501201185891e-01
3.400000000000000270e-07 7.272812249752695912e-01 6.624193320457864020e-01
3.499999999999999842e-07 7.369415069009374042e-01 6.762197347967402461e-01
3.599999999999999943e-07 7.507419096518912482e-01 6.817398958971218059e-01
3.700000000000000044e-07 7.604021915775589502e-01 6.969203389231711787e-01
3.800000000000000146e-07 7.673023929530359277e-01 7.038205402986480452e-01
3.900000000000000247e-07 7.755826346036082120e-01 7.121007819492203295e-01
3.999999999999999819e-07 7.866229568043713316e-01 7.190009833246973070e-01
4.099999999999999920e-07 7.976632790051344513e-01 7.300413055254604267e-01
4.200000000000000022e-07 8.100836414809928776e-01 7.397015874511281286e-01
4.300000000000000123e-07 8.169838428564698551e-01 7.479818291017004128e-01
4.400000000000000224e-07 8.294042053323283925e-01 7.576421110273682258e-01
4.500000000000000326e-07 8.376844469829006767e-01 7.686824332281313454e-01
4.599999999999999898e-07 8.473447289085683787e-01 7.783427151537990474e-01
4.699999999999999999e-07 8.597650913844269160e-01 7.852429165292759139e-01
4.800000000000000630e-07 8.611451316595223338e-01 7.949031984549437269e-01
4.899999999999999672e-07 8.777056149606670132e-01 8.031834401055160111e-01
4.999999999999999774e-07 8.873658968863347152e-01 8.128437220311837130e-01
5.099999999999999875e-07 8.873658968863347152e-01 8.225040039568514150e-01
5.199999999999999976e-07 9.315271856893870828e-01 8.349243664327099523e-01
5.300000000000000078e-07 9.025463399123838659e-01 8.404445275330915122e-01
5.400000000000000179e-07 9.329072259644823895e-01 8.556249705591407739e-01
5.500000000000000281e-07 9.853487564181073743e-01 8.694253733100946180e-01
5.600000000000000382e-07 6.085977613170662215e-01 8.666652927599038936e-01
5.700000000000000483e-07 1.462842691601111689e-01 9.163467426633379320e-01
5.800000000000000585e-07 7.866229568043713039e-02 9.177267829384332387e-01
5.899999999999999627e-07 9.660281925667718594e-02 8.873658968863347152e-01
5.999999999999999728e-07 4.140120825286165013e-02 1.010189481369824227e+00
6.099999999999999830e-07 5.796169155400630185e-02 7.590221513024635325e-01
6.199999999999999931e-07 6.486189292948325857e-02 1.324838664091572693e-01
6.300000000000000033e-07 6.900201375476941457e-02 -3.312096660228931733e-02
6.400000000000000134e-07 8.694253733100945625e-02 6.624193320457863465e-02
6.500000000000000235e-07 8.418245678081867633e-02 5.520161100381552888e-03
6.600000000000000337e-07 1.007429400819633558e-01 1.380040275095388395e-02
6.700000000000000438e-07 1.007429400819633558e-01 3.036088605209854088e-02
6.800000000000000539e-07 1.145433428329172415e-01 6.900201375476941977e-03
6.900000000000000641e-07 1.214435442083941635e-01 1.518044302604927044e-02
6.999999999999999683e-07 1.311038261340619071e-01 1.656048330114465866e-02
7.099999999999999785e-07 1.407641080597296090e-01 1.104032220076310578e-02
7.199999999999999886e-07 1.518044302604927009e-01 1.518044302604927044e-02
7.299999999999999987e-07 1.628447524612558206e-01 1.104032220076310578e-02
7.400000000000000089e-07 1.725050343869235225e-01 1.242036247585849573e-02
7.500000000000000190e-07 1.849253968627820321e-01 9.660281925667717554e-03
7.600000000000000291e-07 1.918255982382589819e-01 8.280241650572329332e-03
7.700000000000000393e-07 1.987257996137359317e-01 8.280241650572329332e-03
7.800000000000000494e-07 2.111461620895944136e-01 8.280241650572329332e-03
7.900000000000000595e-07 2.194264037401667533e-01 5.520161100381552888e-03
7.999999999999999638e-07 2.332268064911205974e-01 6.900201375476941977e-03
8.099999999999999739e-07 2.428870884167883271e-01 5.520161100381552888e-03
8.199999999999999841e-07 2.525473703424560568e-01 5.520161100381552888e-03
8.299999999999999942e-07 2.580675314428376166e-01 1.380040275095388222e-03
8.400000000000000043e-07 2.732479744688868784e-01 4.140120825286164666e-03
8.500000000000000145e-07 2.815282161194592181e-01 1.380040275095388222e-03
8.600000000000000246e-07 2.870483772198407779e-01 5.520161100381552888e-03
8.700000000000000347e-07 2.994687396956992598e-01 0.000000000000000000e+00
8.800000000000000449e-07 3.105090618964623794e-01 4.140120825286164666e-03
8.900000000000000550e-07 3.187893035470347192e-01 1.380040275095388222e-03
9.000000000000000652e-07 3.284495854727024211e-01 1.380040275095388222e-03
9.099999999999999694e-07 3.394899076734654852e-01 2.760080550190776444e-03
9.199999999999999795e-07 3.477701493240378250e-01 -2.760080550190776444e-03
9.299999999999999897e-07 3.574304312497055824e-01 -4.140120825286164666e-03
9.399999999999999998e-07 3.670907131753732844e-01 -4.140120825286164666e-03
9.500000000000000100e-07 3.767509951010409863e-01 -8.280241650572329332e-03
9.600000000000001260e-07 3.836511964765179639e-01 4.140120825286164666e-03
9.700000000000000302e-07 3.960715589523764457e-01 8.280241650572329332e-03
9.799999999999999345e-07 4.002116797776626433e-01 3.036088605209854088e-02
9.900000000000000505e-07 4.222923241791888271e-01 4.278124852795703315e-02
9.999999999999999547e-07 4.250524047293796071e-01 4.278124852795703315e-02
1.010000000000000071e-06 4.319526061048565291e-01 5.382157072872014586e-02
1.019999999999999975e-06 4.443729685807150109e-01 5.796169155400630185e-02
1.030000000000000091e-06 4.540332505063827129e-01 6.624193320457863465e-02
1.039999999999999995e-06 4.678336532573366680e-01 7.176209430496019448e-02
1.050000000000000111e-06 4.774939351830043144e-01 8.004233595553252034e-02
1.060000000000000016e-06 4.843941365584813474e-01 9.246269843139101607e-02
1.069999999999999920e-06 4.954344587592443561e-01 1.048830609072495118e-01
1.080000000000000036e-06 5.050947406849121135e-01 1.104032220076310716e-01
1.089999999999999940e-06 5.161350628856752332e-01 1.200635039332987736e-01
1.100000000000000056e-06 5.313155059117244949e-01 1.338639066842526593e-01
1.109999999999999960e-06 5.423558281124876146e-01 1.338639066842526593e-01
1.120000000000000076e-06 5.437358683875829213e-01 1.393840677846342191e-01
1.129999999999999981e-06 5.547761905883460409e-01 1.573245913608742608e-01
1.140000000000000097e-06 5.685765933392999960e-01 1.642247927363512106e-01
1.150000000000000001e-06 5.782368752649676980e-01 1.752651149371143025e-01
1.160000000000000117e-06 5.892771974657308176e-01 1.863054371378773943e-01
1.170000000000000021e-06 5.975574391163031018e-01 1.945856787884497618e-01
1.179999999999999925e-06 6.099778015921616392e-01 2.083860815394036337e-01
1.190000000000000041e-06 6.141179224174477813e-01 2.166663231899759734e-01
1.199999999999999946e-06 6.320584459936878785e-01 2.194264037401667533e-01
1.210000000000000062e-06 6.361985668189739096e-01 2.318467662160252074e-01
1.219999999999999966e-06 6.499989695699278647e-01 2.428870884167883271e-01
1.230000000000000082e-06 6.568991709454048422e-01 2.539274106175514745e-01
1.239999999999999986e-06 6.706995736963587973e-01 2.663477730934099008e-01
1.250000000000000102e-06 6.734596542465494107e-01 2.746280147439822406e-01
1.260000000000000007e-06 6.872600569975033657e-01 2.829082563945545803e-01
1.270000000000000123e-06 6.927802180978849256e-01 2.898084577700315578e-01
1.280000000000000027e-06 7.079606611239341873e-01 2.994687396956992598e-01
1.289999999999999931e-06 7.176209430496018893e-01 3.132691424466531593e-01
1.300000000000000047e-06 7.286612652503650089e-01 3.243094646474162790e-01
1.309999999999999951e-06 7.369415069009374042e-01 3.312096660228932010e-01
1.320000000000000067e-06 7.493618693767958305e-01 3.353497868481793986e-01
1.329999999999999972e-06 7.604021915775589502e-01 3.491501895991332427e-01
1.340000000000000088e-06 7.659223526779405100e-01 3.588104715248009446e-01
1.349999999999999992e-06 7.769626748787036297e-01 3.657106729002779222e-01
1.360000000000000108e-06 7.893830373545621670e-01 3.753709548259456241e-01
1.370000000000000012e-06 7.949031984549437269e-01 3.850312367516133261e-01
1.380000000000000128e-06 8.114636817560884063e-01 3.933114784021856658e-01
1.390000000000000032e-06 8.142237623062790197e-01 4.057318408780442032e-01
1.399999999999999937e-06 8.335443261576145346e-01 4.167721630788072673e-01
1.410000000000000053e-06 8.390644872579960944e-01 4.167721630788072673e-01
1.419999999999999957e-06 8.418245678081868189e-01 4.264324450044749693e-01
1.430000000000000073e-06 8.597650913844269160e-01 4.388528074803335066e-01
1.439999999999999977e-06 8.583850511093314983e-01 4.512731699561919330e-01
1.450000000000000093e-06 8.790856552357623199e-01 4.623134921569551081e-01
1.459999999999999997e-06 8.873658968863347152e-01 4.705937338075274479e-01
1.470000000000000113e-06 8.887459371614300219e-01 4.788739754580997876e-01
1.480000000000000018e-06 9.260070245890055229e-01 4.926743782090536872e-01
1.490000000000000134e-06 8.970261788120023061e-01 5.009546198596258604e-01
1.500000000000000038e-06 9.273870648641008296e-01 5.133749823354845088e-01
1.509999999999999942e-06 9.812086355928211212e-01 5.326955461868198016e-01
1.520000000000000058e-06 6.127378821423523636e-01 5.464959489377737567e-01
1.529999999999999963e-06 1.435241886099203890e-01 5.644364725140138539e-01
1.540000000000000079e-06 8.280241650572330026e-02 5.740967544396815558e-01
1.549999999999999983e-06 9.384273870648640603e-02 5.754767947147768625e-01
1.560000000000000099e-06 4.278124852795703315e-02 5.934173182910169597e-01
1.570000000000000003e-06 6.900201375476941457e-02 6.044576404917800794e-01
1.580000000000000119e-06 6.624193320457863465e-02 6.113578418672570569e-01
1.590000000000000023e-06 5.934173182910169181e-02 6.223981640680201766e-01
1.599999999999999928e-06 8.142237623062791030e-02 6.306784057185924608e-01
1.610000000000000044e-06 8.280241650572330026e-02 6.375786070940694383e-01
1.619999999999999948e-06 9.384273870648640603e-02 6.499989695699278647e-01
1.630000000000000064e-06 1.062631011823449018e-01 6.596592514955956776e-01
1.639999999999999968e-06 1.159233831080126037e-01 6.679394931461679619e-01
1.650000000000000084e-06 1.186834636582033836e-01 6.803598556220263882e-01
1.659999999999999988e-06 1.338639066842526593e-01 6.941602583729803433e-01
1.670000000000000104e-06 1.435241886099203890e-01 6.996804194733619031e-01
1.680000000000000009e-06 1.504243899853973110e-01 7.052005805737434629e-01
1.690000000000000125e-06 1.573245913608742608e-01 7.176209430496018893e-01
1.700000000000000029e-06 1.738850746620189125e-01 7.314213458005558444e-01
1.709999999999999933e-06 1.835453565876866422e-01 7.355614666258419865e-01
1.720000000000000049e-06 1.890655176880682020e-01 7.521219499269866660e-01
1.729999999999999953e-06 2.001058398888313217e-01 7.535019902020819726e-01
1.740000000000000069e-06 2.125262023646898035e-01 7.645423124028450923e-01
1.749999999999999974e-06 2.194264037401667533e-01 7.783427151537990474e-01
1.760000000000000090e-06 2.332268064911205974e-01 7.852429165292759139e-01
1.769999999999999994e-06 2.401270078665975471e-01 7.921431179047528914e-01
1.780000000000000110e-06 2.497872897922652768e-01 8.031834401055160111e-01
1.790000000000000014e-06 2.608276119930283965e-01 8.128437220311837130e-01
1.800000000000000130e-06 2.677278133685053185e-01 8.197439234066605795e-01
1.810000000000000035e-06 2.787681355692684382e-01 8.349243664327099523e-01
1.819999999999999939e-06 2.856683369447453602e-01 8.445846483583776543e-01
1.830000000000000055e-06 2.994687396956992598e-01 8.514848497338545208e-01
1.839999999999999959e-06 3.091290216213669617e-01 8.749455344104761778e-01
1.850000000000000075e-06 3.174092632719393015e-01 8.680453330349992003e-01
1.859999999999999979e-06 3.270695451976070589e-01 8.804656955108577376e-01
1.870000000000000095e-06 3.367298271232747053e-01 9.149667023882424033e-01
1.880000000000000000e-06 3.505302298742286049e-01 8.652852524848084759e-01
1.890000000000000116e-06 3.601905117998963624e-01 9.591279911912948819e-01
1.900000000000000020e-06 3.615705520749917246e-01 8.984062190870978348e-01
1.909999999999999924e-06 3.712308340006594265e-01 3.036088605209854019e-01
1.920000000000000252e-06 3.905513978519948859e-01 -6.072177210419708177e-02
1.930000000000000156e-06 3.933114784021856658e-01 4.554132907814781306e-02
1.940000000000000060e-06 4.002116797776626433e-01 3.726108742757548720e-02
1.949999999999999965e-06 4.195322436289980472e-01 1.380040275095388395e-02
1.959999999999999869e-06 4.278124852795703870e-01 5.934173182910169181e-02
1.970000000000000197e-06 4.360927269301427267e-01 4.692136935324320302e-02
1.980000000000000101e-06 4.471330491309057908e-01 5.658165127891091883e-02
1.990000000000000005e-06 4.540332505063827129e-01 7.452217485515097439e-02
1.999999999999999909e-06 4.678336532573366680e-01 7.866229568043713039e-02
2.010000000000000237e-06 4.788739754580997876e-01 8.832257760610484620e-02
2.020000000000000142e-06 4.926743782090536872e-01 1.035030206321541218e-01
2.030000000000000046e-06 4.981945393094351360e-01 1.048830609072495118e-01
2.039999999999999950e-06 5.078548212351029489e-01 1.117832622827264477e-01
2.049999999999999854e-06 5.161350628856752332e-01 1.255836650336803473e-01
2.060000000000000182e-06 5.285554253615336595e-01 1.324838664091572693e-01
2.070000000000000086e-06 5.340755864619152193e-01 1.421441483348249990e-01
2.079999999999999991e-06 5.437358683875829213e-01 1.545645108106834809e-01
2.089999999999999895e-06 5.575362711385368764e-01 1.600846719110650407e-01
2.100000000000000223e-06 5.671965530642045783e-01 1.738850746620189125e-01
2.110000000000000127e-06 5.699566336143953027e-01 1.863054371378773943e-01
2.120000000000000031e-06 5.865171169155399822e-01 2.028659204390221016e-01
2.129999999999999935e-06 6.030776002166846617e-01 2.014858801639267116e-01
2.139999999999999840e-06 6.085977613170662215e-01 2.152862829148805834e-01
2.150000000000000167e-06 6.210181237929247589e-01 2.208064440152621433e-01
2.160000000000000072e-06 6.237782043431154833e-01 2.277066453907390930e-01
2.169999999999999976e-06 6.375786070940694383e-01 2.387469675915021572e-01
2.179999999999999880e-06 6.458588487446417226e-01 2.442671286918837170e-01
2.190000000000000208e-06 6.596592514955956776e-01 2.566874911677422544e-01
2.200000000000000112e-06 6.665594528710725442e-01 2.649677328183145386e-01
2.210000000000000016e-06 6.803598556220263882e-01 2.760080550190776583e-01
2.219999999999999921e-06 6.886400972725987835e-01 2.815282161194592181e-01
2.230000000000000248e-06 6.969203389231711787e-01 2.967086591455084799e-01
2.240000000000000153e-06 7.148608624994111649e-01 3.008487799707946220e-01
2.250000000000000057e-06 7.217610638748880314e-01 3.008487799707946220e-01
2.259999999999999961e-06 7.190009833246973070e-01 3.174092632719393015e-01
2.269999999999999866e-06 7.424616680013188530e-01 3.256895049225116412e-01
2.280000000000000193e-06 7.438417082764142707e-01 3.381098673983701230e-01
2.290000000000000098e-06 7.604021915775589502e-01 3.408699479485609030e-01
2.300000000000000002e-06 7.631622721277497856e-01 3.519102701493240226e-01
2.309999999999999906e-06 7.811027957039897718e-01 3.629505923500871423e-01
2.320000000000000234e-06 7.852429165292759139e-01 3.808911159263271839e-01
2.330000000000000138e-06 8.045634803806113178e-01 3.877913173018041060e-01
2.340000000000000042e-06 8.073235609308021532e-01 3.988316395025672256e-01
2.349999999999999947e-06 8.197439234066605795e-01 4.071118811531395099e-01
2.359999999999999851e-06 8.211239636817559973e-01 4.167721630788072673e-01
2.370000000000000179e-06 8.376844469829006767e-01 4.278124852795703870e-01
2.380000000000000083e-06 8.445846483583776543e-01 4.402328477554288688e-01
2.389999999999999987e-06 8.639052122097130582e-01 4.498931296810965708e-01
2.399999999999999891e-06 8.611451316595223338e-01 4.554132907814781861e-01
2.410000000000000219e-06 8.859858566112391864e-01 4.623134921569551081e-01
2.420000000000000123e-06 8.873658968863347152e-01 4.719737740826227546e-01
2.430000000000000028e-06 8.901259774365254396e-01 4.857741768335766541e-01
2.439999999999999932e-06 9.260070245890055229e-01 4.981945393094351360e-01
2.450000000000000260e-06 8.984062190870978348e-01 5.037147004098166958e-01
2.460000000000000164e-06 9.301471454142917761e-01 5.161350628856752332e-01
2.470000000000000068e-06 9.881088369682979877e-01 5.216552239860567930e-01
2.479999999999999972e-06 6.085977613170662215e-01 5.395957475622968902e-01
2.489999999999999877e-06 1.462842691601111689e-01 5.630564322389184362e-01
2.500000000000000205e-06 8.418245678081867633e-02 5.727167141645861381e-01
2.510000000000000109e-06 9.798285953177257590e-02 5.740967544396815558e-01
2.520000000000000013e-06 4.416128880305242310e-02 5.934173182910169597e-01
2.529999999999999917e-06 7.176209430496019448e-02 6.058376807668754971e-01
2.540000000000000245e-06 7.590221513024635047e-02 6.099778015921616392e-01
2.550000000000000149e-06 6.072177210419708177e-02 6.141179224174477813e-01
2.560000000000000054e-06 8.142237623062791030e-02 6.306784057185924608e-01
2.569999999999999958e-06 8.970261788120023616e-02 6.375786070940694383e-01
2.579999999999999862e-06 9.660281925667718594e-02 6.527590501201185891e-01
2.590000000000000190e-06 1.076431414574402917e-01 6.582792112205001489e-01
2.600000000000000094e-06 1.145433428329172415e-01 6.720796139714541040e-01
2.609999999999999998e-06 1.255836650336803473e-01 6.803598556220263882e-01
2.619999999999999903e-06 1.283437455838711272e-01 6.955402986480756500e-01
2.630000000000000230e-06 1.476643094352065588e-01 7.024405000235527385e-01
2.640000000000000135e-06 1.421441483348249990e-01 7.176209430496018893e-01
2.650000000000000039e-06 1.669848732865419905e-01 7.355614666258419865e-01
